  
  
# r(i) [cm]  Tk(i) [K]
  
1.0000000000E+0010  1.3616414590E+0003
1.0000906805E+0010  1.3618298920E+0003
1.0001815529E+0010  1.3620371975E+0003
1.0002726187E+0010  1.3622638963E+0003
1.0003638791E+0010  1.3625116393E+0003
1.0004553359E+0010  1.3627801899E+0003
1.0005469904E+0010  1.3630691026E+0003
1.0006388443E+0010  1.3633778180E+0003
1.0007308989E+0010  1.3637084609E+0003
1.0008231559E+0010  1.3640610002E+0003
1.0009156169E+0010  1.3644350742E+0003
1.0010082836E+0010  1.3648299028E+0003
1.0011011575E+0010  1.3652491285E+0003
1.0011942405E+0010  1.3656892813E+0003
1.0012875342E+0010  1.3661527158E+0003
1.0013810404E+0010  1.3666395673E+0003
1.0014747608E+0010  1.3671489048E+0003
1.0015686973E+0010  1.3676825440E+0003
1.0016628518E+0010  1.3682390250E+0003
1.0017572260E+0010  1.3688224875E+0003
1.0018518221E+0010  1.3694269851E+0003
1.0019466419E+0010  1.3700580296E+0003
1.0020416874E+0010  1.3707153679E+0003
1.0021369608E+0010  1.3713975216E+0003
1.0022324642E+0010  1.3721041385E+0003
1.0023281994E+0010  1.3728381185E+0003
1.0024241689E+0010  1.3735993905E+0003
1.0025203748E+0010  1.3743866895E+0003
1.0026168193E+0010  1.3752008467E+0003
1.0027135047E+0010  1.3760445854E+0003
1.0028104335E+0010  1.3769130694E+0003
1.0029076079E+0010  1.3778113676E+0003
1.0030050308E+0010  1.3787373631E+0003
1.0031027043E+0010  1.3796936997E+0003
1.0032006312E+0010  1.3806780257E+0003
1.0032988139E+0010  1.3816944186E+0003
1.0033972551E+0010  1.3827389757E+0003
1.0034959576E+0010  1.3838144611E+0003
1.0035949241E+0010  1.3849221215E+0003
1.0036941575E+0010  1.3860611005E+0003
1.0037936606E+0010  1.3872305850E+0003
1.0038934363E+0010  1.3884364675E+0003
1.0039934877E+0010  1.3896714014E+0003
1.0040938177E+0010  1.3909404823E+0003
1.0041944295E+0010  1.3922443323E+0003
1.0042953264E+0010  1.3935814041E+0003
1.0043965115E+0010  1.3949537880E+0003
1.0044979882E+0010  1.3963622541E+0003
1.0045997598E+0010  1.3978056713E+0003
1.0047018298E+0010  1.3992860241E+0003
1.0048042018E+0010  1.4008018587E+0003
1.0049068792E+0010  1.4023549309E+0003
1.0050098657E+0010  1.4039464416E+0003
1.0051131653E+0010  1.4055769146E+0003
1.0052167818E+0010  1.4072450690E+0003
1.0053207188E+0010  1.4089537253E+0003
1.0054249804E+0010  1.4107023353E+0003
1.0055295708E+0010  1.4124907913E+0003
1.0056344941E+0010  1.4143200866E+0003
1.0057397545E+0010  1.4161930109E+0003
1.0058453564E+0010  1.4181056356E+0003
1.0059513041E+0010  1.4200628985E+0003
1.0060576022E+0010  1.4220646673E+0003
1.0061642552E+0010  1.4241097736E+0003
1.0062712679E+0010  1.4261993409E+0003
1.0063786450E+0010  1.4283356088E+0003
1.0064863914E+0010  1.4305171237E+0003
1.0065945123E+0010  1.4327460462E+0003
1.0067030126E+0010  1.4350226130E+0003
1.0068118974E+0010  1.4373477068E+0003
1.0069211722E+0010  1.4397232862E+0003
1.0070308424E+0010  1.4421464660E+0003
1.0071409134E+0010  1.4446212946E+0003
1.0072513909E+0010  1.4471474746E+0003
1.0073622809E+0010  1.4497254614E+0003
1.0074735890E+0010  1.4523566975E+0003
1.0075853215E+0010  1.4550411067E+0003
1.0076974843E+0010  1.4577809871E+0003
1.0078100838E+0010  1.4605758419E+0003
1.0079231265E+0010  1.4634264082E+0003
1.0080366188E+0010  1.4663336149E+0003
1.0081505676E+0010  1.4692985159E+0003
1.0082649797E+0010  1.4723223078E+0003
1.0083798620E+0010  1.4754056314E+0003
1.0084952218E+0010  1.4785500761E+0003
1.0086110663E+0010  1.4817561933E+0003
1.0087274031E+0010  1.4850244444E+0003
1.0088442397E+0010  1.4883553830E+0003
1.0089615839E+0010  1.4917510445E+0003
1.0090794436E+0010  1.4952120303E+0003
1.0091978272E+0010  1.4987406888E+0003
1.0093167428E+0010  1.5023349204E+0003
1.0094361987E+0010  1.5059993144E+0003
1.0095562039E+0010  1.5097337500E+0003
1.0096767671E+0010  1.5135385354E+0003
1.0097978974E+0010  1.5174131992E+0003
1.0099196040E+0010  1.5213629047E+0003
1.0100418965E+0010  1.5253856286E+0003
1.0101647847E+0010  1.5294841475E+0003
1.0102882784E+0010  1.5336586447E+0003
1.0104123876E+0010  1.5379110372E+0003
1.0105371228E+0010  1.5422426861E+0003
1.0106624945E+0010  1.5466533640E+0003
1.0107885135E+0010  1.5511479565E+0003
1.0109151912E+0010  1.5557218223E+0003
1.0110425385E+0010  1.5603823396E+0003
1.0111705673E+0010  1.5651275881E+0003
1.0112992894E+0010  1.5699610911E+0003
1.0114287167E+0010  1.5748817734E+0003
1.0115588617E+0010  1.5798920305E+0003
1.0116897371E+0010  1.5849945639E+0003
1.0118213560E+0010  1.5901878753E+0003
1.0119537315E+0010  1.5954768111E+0003
1.0120868774E+0010  1.6008604621E+0003
1.0122208075E+0010  1.6063413879E+0003
1.0123555361E+0010  1.6119217027E+0003
1.0124910776E+0010  1.6176045958E+0003
1.0126274471E+0010  1.6233854435E+0003
1.0127646598E+0010  1.6292709394E+0003
1.0129027316E+0010  1.6352614090E+0003
1.0130416785E+0010  1.6413595138E+0003
1.0131815169E+0010  1.6475656732E+0003
1.0133222632E+0010  1.6538892656E+0003
1.0134639348E+0010  1.6603210685E+0003
1.0136065488E+0010  1.6668719385E+0003
1.0137501233E+0010  1.6735366889E+0003
1.0138946766E+0010  1.6803235322E+0003
1.0140402278E+0010  1.6872274188E+0003
1.0141867962E+0010  1.6942544111E+0003
1.0143344017E+0010  1.7014075927E+0003
1.0144830649E+0010  1.7086841909E+0003
1.0146328064E+0010  1.7160897602E+0003
1.0147836478E+0010  1.7236254823E+0003
1.0149356111E+0010  1.7312936192E+0003
1.0150887189E+0010  1.7390979934E+0003
1.0152429944E+0010  1.7470378766E+0003
1.0153984612E+0010  1.7551164820E+0003
1.0155551435E+0010  1.7633377390E+0003
1.0157130667E+0010  1.7717010682E+0003
1.0158722562E+0010  1.7802109518E+0003
1.0160327383E+0010  1.7888693469E+0003
1.0161945400E+0010  1.7976802435E+0003
1.0163576891E+0010  1.8066437914E+0003
1.0165222141E+0010  1.8157621072E+0003
1.0166881442E+0010  1.8250383670E+0003
1.0168555093E+0010  1.8344758488E+0003
1.0170243407E+0010  1.8440770169E+0003
1.0171946699E+0010  1.8538451243E+0003
1.0173665292E+0010  1.8637825293E+0003
1.0175399521E+0010  1.8738908174E+0003
1.0177149730E+0010  1.8841739448E+0003
1.0178916276E+0010  1.8946312814E+0003
1.0180699521E+0010  1.9052729805E+0003
1.0182499839E+0010  1.9160980600E+0003
1.0184317611E+0010  1.9271093721E+0003
1.0186153232E+0010  1.9383099787E+0003
1.0188007107E+0010  1.9497013130E+0003
1.0189879659E+0010  1.9612866983E+0003
1.0191771318E+0010  1.9730709248E+0003
1.0193682527E+0010  1.9850562016E+0003
1.0195613744E+0010  1.9972466072E+0003
1.0197565438E+0010  2.0096437898E+0003
1.0199538095E+0010  2.0222502488E+0003
1.0201532216E+0010  2.0350693935E+0003
1.0203548317E+0010  2.0481024912E+0003
1.0205586929E+0010  2.0613559912E+0003
1.0207648605E+0010  2.0748324282E+0003
1.0209733906E+0010  2.0885352093E+0003
1.0211843418E+0010  2.1024693575E+0003
1.0213977738E+0010  2.1166347699E+0003
1.0216137486E+0010  2.1310373216E+0003
1.0218323304E+0010  2.1456777387E+0003
1.0220535854E+0010  2.1605594217E+0003
1.0222775825E+0010  2.1756848881E+0003
1.0225043924E+0010  2.1910569378E+0003
1.0227340881E+0010  2.2066803326E+0003
1.0229667454E+0010  2.2225586214E+0003
1.0232024429E+0010  2.2386892532E+0003
1.0234412615E+0010  2.2550782691E+0003
1.0236832855E+0010  2.2717281261E+0003
1.0239286021E+0010  2.2886418877E+0003
1.0241773013E+0010  2.3058237915E+0003
1.0244294761E+0010  2.3232771308E+0003
1.0246852232E+0010  2.3410013848E+0003
1.0249446426E+0010  2.3589983708E+0003
1.0252078389E+0010  2.3772687477E+0003
1.0254749202E+0010  2.3958136603E+0003
1.0257459993E+0010  2.4146366090E+0003
1.0260211929E+0010  2.4337393736E+0003
1.0263006224E+0010  2.4531188851E+0003
1.0265844139E+0010  2.4727815349E+0003
1.0268726990E+0010  2.4927201573E+0003
1.0271656150E+0010  2.5129388361E+0003
1.0274633041E+0010  2.5334384624E+0003
1.0277659145E+0010  2.5542183056E+0003
1.0280736009E+0010  2.5752813479E+0003
1.0283865239E+0010  2.5966166727E+0003
1.0287048522E+0010  2.6182257702E+0003
1.0290287615E+0010  2.6401027708E+0003
1.0293584364E+0010  2.6622441414E+0003
1.0296940694E+0010  2.6846469925E+0003
1.0300358616E+0010  2.7073048397E+0003
1.0303840241E+0010  2.7302144178E+0003
1.0307387770E+0010  2.7533674310E+0003
1.0311003517E+0010  2.7767573662E+0003
1.0314689906E+0010  2.8003764509E+0003
1.0318449474E+0010  2.8242162048E+0003
1.0322284896E+0010  2.8482697499E+0003
1.0326198958E+0010  2.8725206906E+0003
1.0330194616E+0010  2.8969581045E+0003
1.0334274964E+0010  2.9215627470E+0003
1.0338443278E+0010  2.9463204254E+0003
1.0342702999E+0010  2.9712202221E+0003
1.0347057752E+0010  2.9962457689E+0003
1.0351511350E+0010  3.0213845271E+0003
1.0356067805E+0010  3.0466100977E+0003
1.0360731369E+0010  3.0719073720E+0003
1.0365506517E+0010  3.0972482864E+0003
1.0370397998E+0010  3.1226219973E+0003
1.0375410795E+0010  3.1479984820E+0003
1.0380550203E+0010  3.1733557326E+0003
1.0385821815E+0010  3.1986597023E+0003
1.0391231571E+0010  3.2238949136E+0003
1.0396785741E+0010  3.2490435638E+0003
1.0402490940E+0010  3.2740865441E+0003
1.0408354159E+0010  3.2989856986E+0003
1.0414382839E+0010  3.3237121117E+0003
1.0420584880E+0010  3.3482388013E+0003
1.0426968657E+0010  3.3725612316E+0003
1.0433542999E+0010  3.3966332606E+0003
1.0440317340E+0010  3.4204525651E+0003
1.0447301623E+0010  3.4439966692E+0003
1.0454506416E+0010  3.4672631034E+0003
1.0461942875E+0010  3.4902559613E+0003
1.0469622774E+0010  3.5129503635E+0003
1.0477558658E+0010  3.5353358437E+0003
1.0485763840E+0010  3.5574477059E+0003
1.0494252297E+0010  3.5792728472E+0003
1.0503038920E+0010  3.6008177729E+0003
1.0512139483E+0010  3.6221320837E+0003
1.0521570573E+0010  3.6432195601E+0003
1.0531349820E+0010  3.6640980333E+0003
1.0541495937E+0010  3.6847879644E+0003
1.0552028793E+0010  3.7053232458E+0003
1.0562969451E+0010  3.7257823432E+0003
1.0574340072E+0010  3.7462102636E+0003
1.0586164141E+0010  3.7666070588E+0003
1.0598466806E+0010  3.7870238952E+0003
1.0611274779E+0010  3.8075161540E+0003
1.0624616424E+0010  3.8280925301E+0003
1.0638522191E+0010  3.8488044909E+0003
1.0653024563E+0010  3.8698631514E+0003
1.0668157374E+0010  3.8915808294E+0003
1.0683955318E+0010  3.9143332710E+0003
1.0700453690E+0010  3.9386994835E+0003
1.0717687169E+0010  3.9652435358E+0003
1.0735689935E+0010  3.9945060586E+0003
1.0754495894E+0010  4.0270578098E+0003
1.0774138652E+0010  4.0631676672E+0003
1.0794653945E+0010  4.1030901477E+0003
1.0816080262E+0010  4.1468817974E+0003
1.0838460970E+0010  4.1944458587E+0003
1.0861846357E+0010  4.2457619684E+0003
1.0886293995E+0010  4.3005395324E+0003
1.0911872155E+0010  4.3588840354E+0003
1.0938657661E+0010  4.4205093546E+0003
1.0966740879E+0010  4.4856724173E+0003
1.0996222299E+0010  4.5541898027E+0003
1.1027218652E+0010  4.6262015852E+0003
1.1059862067E+0010  4.7017160269E+0003
1.1094304111E+0010  4.7808479555E+0003
1.1130717957E+0010  4.8640366794E+0003
1.1169298380E+0010  4.9514362516E+0003
1.1210269444E+0010  5.0433177233E+0003
1.1253888566E+0010  5.1393762220E+0003
1.1300460998E+0010  5.2405305759E+0003
1.1350332260E+0010  5.3475210984E+0003
1.1403899247E+0010  5.4605358775E+0003
1.1461631027E+0010  5.5793655362E+0003
1.1524092066E+0010  5.7044381746E+0003
1.1591952879E+0010  5.8366971486E+0003
1.1666005774E+0010  5.9768697370E+0003
1.1747198233E+0010  6.1266677179E+0003
1.1836649013E+0010  6.2844937653E+0003
1.1935769220E+0010  6.4544486278E+0003
1.2046196318E+0010  6.6297191853E+0003
1.2170142771E+0010  6.8161171970E+0003
1.2310184589E+0010  7.0126783624E+0003
1.2469559323E+0010  7.2199773920E+0003
1.2652264052E+0010  7.4380369032E+0003
1.2863232289E+0010  7.6662398197E+0003
1.3108461934E+0010  7.9007469470E+0003
1.3395214992E+0010  8.1249530102E+0003
1.3732778686E+0010  8.3292086718E+0003
1.4131975760E+0010  8.5179728046E+0003
1.4603148870E+0010  8.6528720012E+0003
1.5158287348E+0010  8.7375793776E+0003
1.5805675827E+0010  8.7550361361E+0003
1.6549819629E+0010  8.7048859165E+0003
1.7388664241E+0010  8.5906223756E+0003
1.8313617272E+0010  8.4250372682E+0003
1.9310850219E+0010  8.2228619087E+0003
2.0364259875E+0010  7.9965860510E+0003
2.1458116994E+0010  7.7599183732E+0003
2.2578554606E+0010  7.5208842250E+0003
2.3714450410E+0010  7.2915385248E+0003
2.4856426773E+0010  7.0717394498E+0003
2.5998076619E+0010  6.8666618390E+0003
2.7134055558E+0010  6.6743282299E+0003
2.8260854726E+0010  6.4974993338E+0003
2.9375208254E+0010  6.3344082767E+0003
3.0475254017E+0010  6.1826737796E+0003
3.1559647830E+0010  6.0440499686E+0003
3.2627005064E+0010  5.9156645894E+0003
3.3676464742E+0010  5.7948880603E+0003
3.4707728740E+0010  5.6842723687E+0003
3.5720056859E+0010  5.5805466570E+0003
3.6713214984E+0010  5.4830981186E+0003
3.7687187117E+0010  5.3921795214E+0003
3.8641872524E+0010  5.3068210236E+0003
3.9577202251E+0010  5.2254272390E+0003
4.0493596201E+0010  5.1493183029E+0003
4.1390995513E+0010  5.0779947048E+0003
4.2269346271E+0010  5.0087166769E+0003
4.3129227575E+0010  4.9429253660E+0003
4.3970660594E+0010  4.8798622285E+0003
4.4793733246E+0010  4.8176490452E+0003
4.5598838412E+0010  4.7570350684E+0003
4.6386004150E+0010  4.6973309479E+0003
4.7155291605E+0010  4.6371935314E+0003
4.7906941470E+0010  4.5771471609E+0003
4.8640968697E+0010  4.5169079545E+0003
4.9357369872E+0010  4.4556352019E+0003
5.0056324704E+0010  4.3936280136E+0003
5.0737944839E+0010  4.3314292677E+0003
5.1402255953E+0010  4.2688788990E+0003
5.2049386606E+0010  4.2057352432E+0003
5.2679545597E+0010  4.1423690677E+0003
5.3292972739E+0010  4.0790643221E+0003
5.3889948460E+0010  4.0160488394E+0003
5.4470824213E+0010  3.9535058234E+0003
5.5035971096E+0010  3.8916825614E+0003
5.5585769034E+0010  3.8308186942E+0003
5.6120637033E+0010  3.7710644156E+0003
5.6641022242E+0010  3.7126027020E+0003
5.7147375162E+0010  3.6555636608E+0003
5.7640141446E+0010  3.5999494902E+0003
5.8119772946E+0010  3.5457702395E+0003
5.8586737975E+0010  3.4930228441E+0003
5.9041494333E+0010  3.4417227253E+0003
5.9484464593E+0010  3.3919549779E+0003
5.9916046874E+0010  3.3436554128E+0003
