  
  
#r(i)[cm]  rho(i) [g/cm^-3]
  
1.0000000000E+0010  1.2996389265E-0011
1.0000857887E+0010  1.2796062309E-0011
1.0001716858E+0010  1.2598824896E-0011
1.0002576915E+0010  1.2404651568E-0011
1.0003438057E+0010  1.2213461522E-0011
1.0004300287E+0010  1.2025259849E-0011
1.0005163601E+0010  1.1839962209E-0011
1.0006028002E+0010  1.1657523223E-0011
1.0006893490E+0010  1.1477908681E-0011
1.0007760065E+0010  1.1301087604E-0011
1.0008627727E+0010  1.1126979429E-0011
1.0009496478E+0010  1.0955585232E-0011
1.0010366315E+0010  1.0786815428E-0011
1.0011237243E+0010  1.0620683143E-0011
1.0012109258E+0010  1.0457088133E-0011
1.0012982364E+0010  1.0296024774E-0011
1.0013856561E+0010  1.0137461754E-0011
1.0014731848E+0010  9.9813465425E-0012
1.0015608226E+0010  9.8276206106E-0012
1.0016485698E+0010  9.6762824302E-0012
1.0017364263E+0010  9.5272800001E-0012
1.0018243922E+0010  9.3805757132E-0012
1.0019124675E+0010  9.2361263894E-0012
1.0020006525E+0010  9.0939242759E-0012
1.0020889469E+0010  8.9538959707E-0012
1.0021773511E+0010  8.8160333353E-0012
1.0022658652E+0010  8.6802969656E-0012
1.0023544891E+0010  8.5466349107E-0012
1.0024432231E+0010  8.4150418849E-0012
1.0025320673E+0010  8.2854755886E-0012
1.0026210218E+0010  8.1579078580E-0012
1.0027100867E+0010  8.0322813158E-0012
1.0027992623E+0010  7.9086010119E-0012
1.0028885486E+0010  7.7868175117E-0012
1.0029779458E+0010  7.6669074882E-0012
1.0030674541E+0010  7.5488441072E-0012
1.0031570736E+0010  7.4325738700E-0012
1.0032468047E+0010  7.3181039579E-0012
1.0033366474E+0010  7.2053764871E-0012
1.0034266021E+0010  7.0943942377E-0012
1.0035166687E+0010  6.9851000997E-0012
1.0036068478E+0010  6.8774779728E-0012
1.0036971395E+0010  6.7715154560E-0012
1.0037875440E+0010  6.6671675102E-0012
1.0038780616E+0010  6.5644143155E-0012
1.0039686927E+0010  6.4632324468E-0012
1.0040594375E+0010  6.3636079654E-0012
1.0041502962E+0010  6.2654903753E-0012
1.0042412693E+0010  6.1688866088E-0012
1.0043323570E+0010  6.0737435358E-0012
1.0044235597E+0010  5.9800641509E-0012
1.0045148778E+0010  5.8878074009E-0012
1.0046063115E+0010  5.7969594437E-0012
1.0046978615E+0010  5.7074968397E-0012
1.0047895279E+0010  5.6193969165E-0012
1.0048813112E+0010  5.5326379352E-0012
1.0049732119E+0010  5.4472015892E-0012
1.0050652303E+0010  5.3630625211E-0012
1.0051573671E+0010  5.2802074738E-0012
1.0052496225E+0010  5.1986170136E-0012
1.0053419971E+0010  5.1182540843E-0012
1.0054344915E+0010  5.0391207823E-0012
1.0055271061E+0010  4.9611844440E-0012
1.0056198415E+0010  4.8844315702E-0012
1.0057126983E+0010  4.8088453923E-0012
1.0058056771E+0010  4.7344132875E-0012
1.0058987782E+0010  4.6610987893E-0012
1.0059920025E+0010  4.5888951144E-0012
1.0060853507E+0010  4.5177912198E-0012
1.0061788232E+0010  4.4477525174E-0012
1.0062724210E+0010  4.3787795689E-0012
1.0063661447E+0010  4.3108459903E-0012
1.0064599950E+0010  4.2439362223E-0012
1.0065539729E+0010  4.1780455249E-0012
1.0066480788E+0010  4.1131458679E-0012
1.0067423136E+0010  4.0492244254E-0012
1.0068366783E+0010  3.9862703325E-0012
1.0069311735E+0010  3.9242626629E-0012
1.0070258003E+0010  3.8631932516E-0012
1.0071205594E+0010  3.8030386026E-0012
1.0072154518E+0010  3.7437958385E-0012
1.0073104784E+0010  3.6854431226E-0012
1.0074056402E+0010  3.6279671243E-0012
1.0075009382E+0010  3.5713542930E-0012
1.0075963735E+0010  3.5155963405E-0012
1.0076919470E+0010  3.4606739841E-0012
1.0077876598E+0010  3.4065781296E-0012
1.0078835131E+0010  3.3532909504E-0012
1.0079795080E+0010  3.3008051120E-0012
1.0080756457E+0010  3.2491070820E-0012
1.0081719274E+0010  3.1981851851E-0012
1.0082683543E+0010  3.1480246212E-0012
1.0083649276E+0010  3.0986167417E-0012
1.0084616487E+0010  3.0499480383E-0012
1.0085585189E+0010  3.0020081041E-0012
1.0086555395E+0010  2.9547838412E-0012
1.0087527121E+0010  2.9082682746E-0012
1.0088500379E+0010  2.8624445194E-0012
1.0089475185E+0010  2.8173029386E-0012
1.0090451556E+0010  2.7728388878E-0012
1.0091429506E+0010  2.7290392258E-0012
1.0092409051E+0010  2.6858908749E-0012
1.0093390207E+0010  2.6433860534E-0012
1.0094372991E+0010  2.6015183394E-0012
1.0095357420E+0010  2.5602736188E-0012
1.0096343511E+0010  2.5196412832E-0012
1.0097331283E+0010  2.4796151011E-0012
1.0098320753E+0010  2.4401856690E-0012
1.0099311941E+0010  2.4013445058E-0012
1.0100304865E+0010  2.3630806402E-0012
1.0101299545E+0010  2.3253812254E-0012
1.0102296004E+0010  2.2882470994E-0012
1.0103294259E+0010  2.2516651422E-0012
1.0104294332E+0010  2.2156233913E-0012
1.0105296246E+0010  2.1801190394E-0012
1.0106300022E+0010  2.1451407061E-0012
1.0107305683E+0010  2.1106831401E-0012
1.0108313253E+0010  2.0767382888E-0012
1.0109322753E+0010  2.0432939197E-0012
1.0110334210E+0010  2.0103473675E-0012
1.0111347648E+0010  1.9778895286E-0012
1.0112363093E+0010  1.9459113367E-0012
1.0113380570E+0010  1.9144070797E-0012
1.0114400106E+0010  1.8833686792E-0012
1.0115421730E+0010  1.8527916392E-0012
1.0116445468E+0010  1.8226678569E-0012
1.0117471349E+0010  1.7929884939E-0012
1.0118499403E+0010  1.7637468187E-0012
1.0119529659E+0010  1.7349401893E-0012
1.0120562149E+0010  1.7065582810E-0012
1.0121596903E+0010  1.6785965223E-0012
1.0122633954E+0010  1.6510493529E-0012
1.0123673333E+0010  1.6239076624E-0012
1.0124715076E+0010  1.5971664478E-0012
1.0125759217E+0010  1.5708227565E-0012
1.0126805790E+0010  1.5448660233E-0012
1.0127854831E+0010  1.5192957042E-0012
1.0128906377E+0010  1.4941005335E-0012
1.0129960466E+0010  1.4692784858E-0012
1.0131017136E+0010  1.4448227065E-0012
1.0132076426E+0010  1.4207293934E-0012
1.0133138377E+0010  1.3969907317E-0012
1.0134203029E+0010  1.3736033469E-0012
1.0135270425E+0010  1.3505606666E-0012
1.0136340609E+0010  1.3278592115E-0012
1.0137413623E+0010  1.3054921230E-0012
1.0138489513E+0010  1.2834564708E-0012
1.0139568325E+0010  1.2617456391E-0012
1.0140650106E+0010  1.2403572784E-0012
1.0141734903E+0010  1.2192823677E-0012
1.0142822768E+0010  1.1985217568E-0012
1.0143913749E+0010  1.1780655691E-0012
1.0145007898E+0010  1.1579123296E-0012
1.0146105270E+0010  1.1380585059E-0012
1.0147205916E+0010  1.1184980148E-0012
1.0148309891E+0010  1.0992259894E-0012
1.0149417254E+0010  1.0802401943E-0012
1.0150528061E+0010  1.0615347485E-0012
1.0151642373E+0010  1.0431070285E-0012
1.0152760248E+0010  1.0249529926E-0012
1.0153881748E+0010  1.0070657046E-0012
1.0155006939E+0010  9.8944677818E-0013
1.0156135882E+0010  9.7208745834E-0013
1.0157268646E+0010  9.5498644477E-0013
1.0158405298E+0010  9.3814003047E-0013
1.0159545906E+0010  9.2154313930E-0013
1.0160690543E+0010  9.0519358477E-0013
1.0161839281E+0010  8.8908733433E-0013
1.0162992194E+0010  8.7322163273E-0013
1.0164149357E+0010  8.5759197430E-0013
1.0165310849E+0010  8.4219587402E-0013
1.0166476749E+0010  8.2702900381E-0013
1.0167647140E+0010  8.1208937320E-0013
1.0168822103E+0010  7.9737372686E-0013
1.0170001725E+0010  7.8287786617E-0013
1.0171186093E+0010  7.6859947121E-0013
1.0172375296E+0010  7.5453534193E-0013
1.0173569426E+0010  7.4068311042E-0013
1.0174768577E+0010  7.2703837378E-0013
1.0175972844E+0010  7.1360012313E-0013
1.0177182326E+0010  7.0036408901E-0013
1.0178397124E+0010  6.8732795059E-0013
1.0179617340E+0010  6.7448915385E-0013
1.0180843080E+0010  6.6184487830E-0013
1.0182074452E+0010  6.4939224137E-0013
1.0183311567E+0010  6.3712873346E-0013
1.0184554538E+0010  6.2505248503E-0013
1.0185803480E+0010  6.1315954471E-0013
1.0187058514E+0010  6.0144870167E-0013
1.0188319761E+0010  5.8991695837E-0013
1.0189587345E+0010  5.7856189305E-0013
1.0190861396E+0010  5.6738119560E-0013
1.0192142043E+0010  5.5637180842E-0013
1.0193429423E+0010  5.4553132133E-0013
1.0194723676E+0010  5.3485881888E-0013
1.0196024942E+0010  5.2435127720E-0013
1.0197333366E+0010  5.1400717854E-0013
1.0198649096E+0010  5.0382375315E-0013
1.0199972286E+0010  4.9380022956E-0013
1.0201303087E+0010  4.8393272969E-0013
1.0202641662E+0010  4.7421911560E-0013
1.0203988178E+0010  4.6465899546E-0013
1.0205342800E+0010  4.5524960170E-0013
1.0206705700E+0010  4.4598874204E-0013
1.0208077057E+0010  4.3687416290E-0013
1.0209457052E+0010  4.2790522195E-0013
1.0210845871E+0010  4.1907772468E-0013
1.0212243710E+0010  4.1039209563E-0013
1.0213650762E+0010  4.0184563031E-0013
1.0215067231E+0010  3.9343697363E-0013
1.0216493321E+0010  3.8516379021E-0013
1.0217929247E+0010  3.7702536430E-0013
1.0219375223E+0010  3.6901918689E-0013
1.0220831475E+0010  3.6114295789E-0013
1.0222298235E+0010  3.5339638953E-0013
1.0223775736E+0010  3.4577708773E-0013
1.0225264222E+0010  3.3828330953E-0013
1.0226763943E+0010  3.3091398228E-0013
1.0228275153E+0010  3.2366709534E-0013
1.0229798116E+0010  3.1654122694E-0013
1.0231333104E+0010  3.0953524404E-0013
1.0232880391E+0010  3.0264736016E-0013
1.0234440265E+0010  2.9587603634E-0013
1.0236013018E+0010  2.8921984936E-0013
1.0237598951E+0010  2.8267698774E-0013
1.0239198379E+0010  2.7624663558E-0013
1.0240811617E+0010  2.6992687714E-0013
1.0242438997E+0010  2.6371692877E-0013
1.0244080854E+0010  2.5761435506E-0013
1.0245737541E+0010  2.5161875254E-0013
1.0247409413E+0010  2.4572841005E-0013
1.0249096842E+0010  2.3994193067E-0013
1.0250800208E+0010  2.3425852638E-0013
1.0252519899E+0010  2.2867613698E-0013
1.0254256323E+0010  2.2319419003E-0013
1.0256009891E+0010  2.1781089881E-0013
1.0257781034E+0010  2.1252551781E-0013
1.0259570190E+0010  2.0733634125E-0013
1.0261377816E+0010  2.0224202568E-0013
1.0263204384E+0010  1.9724209435E-0013
1.0265050373E+0010  1.9233454951E-0013
1.0266916285E+0010  1.8751890367E-0013
1.0268802632E+0010  1.8279330310E-0013
1.0270709950E+0010  1.7815734122E-0013
1.0272638781E+0010  1.7360925338E-0013
1.0274589694E+0010  1.6914815122E-0013
1.0276563273E+0010  1.6477281703E-0013
1.0278560123E+0010  1.6048189449E-0013
1.0280580870E+0010  1.5627469631E-0013
1.0282626159E+0010  1.5214988412E-0013
1.0284696657E+0010  1.4810634017E-0013
1.0286793054E+0010  1.4414291423E-0013
1.0288916068E+0010  1.4025883916E-0013
1.0291066434E+0010  1.3645302665E-0013
1.0293244914E+0010  1.3272413474E-0013
1.0295452303E+0010  1.2907143100E-0013
1.0297689417E+0010  1.2549368371E-0013
1.0299957104E+0010  1.2198987916E-0013
1.0302256245E+0010  1.1855888098E-0013
1.0304587754E+0010  1.1519975229E-0013
1.0306952577E+0010  1.1191145551E-0013
1.0309351696E+0010  1.0869316702E-0013
1.0311786126E+0010  1.0554379703E-0013
1.0314256924E+0010  1.0246253370E-0013
1.0316765182E+0010  9.9448201563E-0014
1.0319312038E+0010  9.6499938498E-0014
1.0321898673E+0010  9.3616641683E-0014
1.0324526317E+0010  9.0797485988E-0014
1.0327196248E+0010  8.8041470084E-0014
1.0329909793E+0010  8.5347601255E-0014
1.0332668337E+0010  8.2715139097E-0014
1.0335473313E+0010  8.0143048525E-0014
1.0338326220E+0010  7.7630535263E-0014
1.0341228611E+0010  7.5176630475E-0014
1.0344182109E+0010  7.2780562186E-0014
1.0347188399E+0010  7.0441172750E-0014
1.0350249249E+0010  6.8157691519E-0014
1.0353366496E+0010  6.5929321200E-0014
1.0356542058E+0010  6.3755036748E-0014
1.0359777940E+0010  6.1634054396E-0014
1.0363076235E+0010  5.9565584734E-0014
1.0366439124E+0010  5.7548663535E-0014
1.0369868895E+0010  5.5582509414E-0014
1.0373367934E+0010  5.3666253119E-0014
1.0376938744E+0010  5.1798853861E-0014
1.0380583955E+0010  4.9979562284E-0014
1.0384306322E+0010  4.8207631759E-0014
1.0388108723E+0010  4.6482302666E-0014
1.0391994176E+0010  4.4802631897E-0014
1.0395965857E+0010  4.3167755734E-0014
1.0400027106E+0010  4.1577023167E-0014
1.0404181423E+0010  4.0029659946E-0014
1.0408432483E+0010  3.8524896008E-0014
1.0412784149E+0010  3.7061963103E-0014
1.0417240487E+0010  3.5640085981E-0014
1.0421805780E+0010  3.4258476165E-0014
1.0426484543E+0010  3.2916474393E-0014
1.0431281525E+0010  3.1613227259E-0014
1.0436201748E+0010  3.0347985814E-0014
1.0441250521E+0010  2.9120038541E-0014
1.0446433449E+0010  2.7928673137E-0014
1.0451756454E+0010  2.6773275152E-0014
1.0457225785E+0010  2.5653193604E-0014
1.0462848040E+0010  2.4567706665E-0014
1.0468630210E+0010  2.3516060808E-0014
1.0474579720E+0010  2.2497618314E-0014
1.0480704429E+0010  2.1511693025E-0014
1.0487012683E+0010  2.0557807851E-0014
1.0493513283E+0010  1.9635336256E-0014
1.0500215560E+0010  1.8743707941E-0014
1.0507129394E+0010  1.7882281032E-0014
1.0514265277E+0010  1.7050464499E-0014
1.0521634340E+0010  1.6247962893E-0014
1.0529248255E+0010  1.5474344039E-0014
1.0537119308E+0010  1.4729211201E-0014
1.0545260400E+0010  1.4012193799E-0014
1.0553685026E+0010  1.3322989011E-0014
1.0562407234E+0010  1.2661389617E-0014
1.0571441514E+0010  1.2027234045E-0014
1.0580802689E+0010  1.1420313892E-0014
1.0590505833E+0010  1.0840310018E-0014
1.0600566234E+0010  1.0286878970E-0014
1.0610999270E+0010  9.7596003194E-0015
1.0621820317E+0010  9.2580497688E-0015
1.0633044569E+0010  8.7814952489E-0015
1.0644687206E+0010  8.3289554401E-0015
1.0656763635E+0010  7.8995013363E-0015
1.0669289383E+0010  7.4919671043E-0015
1.0682280478E+0010  7.1050678620E-0015
1.0695753790E+0010  6.7373810542E-0015
1.0709727572E+0010  6.3877833471E-0015
1.0724221210E+0010  6.0550173269E-0015
1.0739255861E+0010  5.7378171229E-0015
1.0754854982E+0010  5.4350296326E-0015
1.0771044658E+0010  5.1457464710E-0015
1.0787853513E+0010  4.8689676151E-0015
1.0805313621E+0010  4.6040851109E-0015
1.0823459846E+0010  4.3502171067E-0015
1.0842331515E+0010  4.1068737455E-0015
1.0861971639E+0010  3.8734026464E-0015
1.0882428389E+0010  3.6495831461E-0015
1.0903753709E+0010  3.4350295458E-0015
1.0926004713E+0010  3.2293715091E-0015
1.0949244430E+0010  3.0322811356E-0015
1.0973542445E+0010  2.8434247963E-0015
1.0998976010E+0010  2.6628044301E-0015
1.1025628025E+0010  2.4900509204E-0015
1.1053591223E+0010  2.3248062210E-0015
1.1082969900E+0010  2.1672280754E-0015
1.1113874928E+0010  2.0168772936E-0015
1.1146432452E+0010  1.8739643619E-0015
1.1180775576E+0010  1.7379482810E-0015
1.1217058146E+0010  1.6089636845E-0015
1.1255444303E+0010  1.4866373067E-0015
1.1296120678E+0010  1.3711388255E-0015
1.1339284461E+0010  1.2619017097E-0015
1.1385166426E+0010  1.1591289125E-0015
1.1434009112E+0010  1.0623882690E-0015
1.1486091597E+0010  9.7169242821E-0016
1.1541714151E+0010  8.8722613378E-0016
1.1601183314E+0010  8.0843930495E-0016
1.1664854971E+0010  7.3515164818E-0016
1.1733117406E+0010  6.6725026386E-0016
1.1806384449E+0010  6.0435788410E-0016
1.1885123297E+0010  5.4613266589E-0016
1.1969863371E+0010  4.9260477717E-0016
1.2061144174E+0010  4.4368017524E-0016
1.2159512825E+0010  3.9881010579E-0016
1.2265617678E+0010  3.5779875314E-0016
1.2380150032E+0010  3.2056111343E-0016
1.2503795684E+0010  2.8695596245E-0016
1.2637216576E+0010  2.5659477542E-0016
1.2781142200E+0010  2.2938355589E-0016
1.2936217345E+0010  2.0496659059E-0016
1.3103130343E+0010  1.8323700066E-0016
1.3282423650E+0010  1.6389473266E-0016
1.3474619727E+0010  1.4666281449E-0016
1.3680231012E+0010  1.3133705570E-0016
1.3899695610E+0010  1.1781849053E-0016
1.4133183862E+0010  1.0591283426E-0016
1.4380714078E+0010  9.5405323638E-0017
1.4642237337E+0010  8.6135700602E-0017
1.4917568780E+0010  7.7914605425E-0017
1.5206550721E+0010  7.0668970594E-0017
1.5508724638E+0010  6.4302196310E-0017
1.5823401895E+0010  5.8675153621E-0017
1.6149927592E+0010  5.3648232102E-0017
1.6487857794E+0010  4.9202121708E-0017
1.6836352994E+0010  4.5263830656E-0017
1.7194515218E+0010  4.1786598405E-0017
1.7561259177E+0010  3.8658562767E-0017
1.7935970021E+0010  3.5888759323E-0017
1.8317518542E+0010  3.3458410040E-0017
1.8704473217E+0010  3.1279784594E-0017
1.9095949270E+0010  2.9329481974E-0017
1.9491001097E+0010  2.7626235167E-0017
1.9888068519E+0010  2.6100931139E-0017
2.0286214180E+0010  2.4724126231E-0017
2.0684687919E+0010  2.3524252732E-0017
2.1082037225E+0010  2.2442144632E-0017
2.1477556325E+0010  2.1452672268E-0017
2.1870814091E+0010  2.0586567083E-0017
2.2260666976E+0010  1.9797990991E-0017
2.2646681188E+0010  1.9063803672E-0017
2.3028767568E+0010  1.8413335015E-0017
2.3406159208E+0010  1.7816517045E-0017
2.3778606861E+0010  1.7253341867E-0017
2.4146206460E+0010  1.6750338695E-0017
2.4508428227E+0010  1.6285407781E-0017
2.4865155216E+0010  1.5837708557E-0017
2.5216673972E+0010  1.5431919353E-0017
2.5562680446E+0010  1.5064290591E-0017
2.5902910979E+0010  1.4707137036E-0017
2.6237685992E+0010  1.4373377089E-0017
2.6566997332E+0010  1.4074824813E-0017
2.6890536434E+0010  1.3789817691E-0017
2.7208463751E+0010  1.3516324754E-0017
2.7520957815E+0010  1.3269658198E-0017
2.7827820052E+0010  1.3040477267E-0017
2.8129048583E+0010  1.2817374589E-0017
2.8424883166E+0010  1.2610138449E-0017
2.8715317012E+0010  1.2423671090E-0017
2.9000217095E+0010  1.2243997733E-0017
2.9279756438E+0010  1.2068005202E-0017
2.9554160850E+0010  1.1905742718E-0017
2.9823412091E+0010  1.1755732090E-0017
3.0087515700E+0010  1.1606381931E-0017
3.0346724836E+0010  1.1458210114E-0017
3.0601264094E+0010  1.1318747617E-0017
3.0851178186E+0010  1.1184467900E-0017
3.1096580048E+0010  1.1047243924E-0017
3.1337748632E+0010  1.0907884908E-0017
3.1574930509E+0010  1.0771935496E-0017
3.1808240724E+0010  1.0637845392E-0017
3.2037818903E+0010  1.0499759581E-0017
3.2263921002E+0010  1.0358083726E-0017
3.2486784067E+0010  1.0216385351E-0017
3.2706559771E+0010  1.0074036176E-0017
3.2923406305E+0010  9.9279471200E-0018
3.3137541688E+0010  9.7786602923E-0018
3.3349165933E+0010  9.6279894615E-0018
3.3558434853E+0010  9.4763014306E-0018
3.3765492208E+0010  9.3227082196E-0018
3.3970497056E+0010  9.1675102036E-0018
3.4173599107E+0010  9.0114295634E-0018
3.4374929474E+0010  8.8551667171E-0018
3.4574601217E+0010  8.6991068201E-0018
3.4772717041E+0010  8.5436188304E-0018
3.4969368983E+0010  8.3894171728E-0018
3.5164631078E+0010  8.2373794538E-0018
3.5358554793E+0010  8.0880321534E-0018
3.5551177036E+0010  7.9417101726E-0018
3.5742523865E+0010  7.7987977302E-0018
3.5932609834E+0010  7.6598621749E-0018
3.6121432487E+0010  7.5254737257E-0018
3.6308972018E+0010  7.3960667952E-0018
3.6495194630E+0010  7.2720109816E-0018
3.6680053193E+0010  7.1537847368E-0018
3.6863484919E+0010  7.0418982163E-0018
3.7045410230E+0010  6.9366975270E-0018
3.7225737019E+0010  6.8383315572E-0018
3.7404366052E+0010  6.7468416938E-0018
3.7581194228E+0010  6.6621452244E-0018
3.7756118290E+0010  6.5840126586E-0018
3.7929039802E+0010  6.5119979975E-0018
3.8099870642E+0010  6.4454465093E-0018
3.8268539285E+0010  6.3834898649E-0018
3.8434996624E+0010  6.3251126045E-0018
3.8599219306E+0010  6.2691346610E-0018
3.8761213849E+0010  6.2142068020E-0018
3.8921020070E+0010  6.1588591522E-0018
3.9078713308E+0010  6.1015808192E-0018
3.9234404973E+0010  6.0408687696E-0018
3.9388241257E+0010  5.9753041131E-0018
3.9540401464E+0010  5.9035841148E-0018
3.9691095455E+0010  5.8245851039E-0018
3.9840560362E+0010  5.7374098674E-0018
3.9989057117E+0010  5.6414236636E-0018
4.0136866999E+0010  5.5363018162E-0018
4.0284286393E+0010  5.4220238451E-0018
4.0431623622E+0010  5.2989139658E-0018
4.0579192922E+0010  5.1675748403E-0018
4.0727311053E+0010  5.0288872811E-0018
4.0876292502E+0010  4.8840890476E-0018
4.1026440409E+0010  4.7346469542E-0018
4.1178040034E+0010  4.5821978769E-0018
4.1331350847E+0010  4.4287912129E-0018
4.1486588170E+0010  4.2775446887E-0018
4.1643874969E+0010  4.1343044530E-0018
4.1803117991E+0010  4.0114087550E-0018
4.1963708658E+0010  3.9318790648E-0018
4.2124023007E+0010  3.9294263100E-0018
4.2281004738E+0010  4.0370444309E-0018
  
